 #              _____________________  _______________________             #
 #              ___  __ \__  __ \_  / / /_  /___  ____/_  ___/             #
 #              __  / / /_  /_/ /  / / /_  __/_  __/  _____ \              #
 #              _  /_/ /_  _, _// /_/ / / /_ _  /___  ____/ /              #
 #              /_____/ /_/ |_| \____/  \__/ /_____/  /____/               #
 #                                                                         #
  
 #        time                      T            heat flux [W.L-2]   in    x              directions   cumulative flux
 #-----------------------------------------------------------------------------------------------

   0.0000000000000000          293.14999999999998          -0.0000000000000000          0.0000000000000000     
   1.0000000000000000          293.00863517995896           107.64384530357414          0.0000000000000000     
   2.1000000000000001          292.86669761311686           210.10455458178143          210.10455458178143     
   3.3100000000000005          292.72473597617619           306.72274610392788          547.49957529610219     
   4.6410000000000009          292.58325140409551           396.95949195837818          1027.8205605657399     
   6.1051000000000020          292.44269551874635           480.14638244233424          1666.8953955964871     
   7.7156100000000025          292.30337723370684           555.81958332923750          2480.6708475488240     
   9.4871710000000036          292.16545087710898           623.81937319062297          3485.3381862660544     
   11.435888100000005          292.02893679566353           684.17955499702930          4697.4040028961472     
   13.579476910000007          291.89372337483263           737.11402951968557          6133.8307168710644     
   15.937424601000009          291.75957701373522           782.99389943790038          7812.2476780044144     
   18.531167061100010          291.62615936629476           822.31594353039986          9751.2256583244089     
   21.384283767210015          291.49305010770433           855.66512444713260          11970.600623229690     
   24.522712143931017          291.35977277439730           883.67480527399732          14491.827972925435     
   27.974983358324121          291.22582093757097           906.98860793689323          17338.346757437263     
   31.772481694156536          291.09068280664701           926.22897316980834          20535.940379448275     
   35.949729863572195          290.95386081698939           942.00375988479504          24113.198089958663     
   40.544702849929415          290.81488448564215           954.78090016923363          28101.554857383628     
   45.599173134922360          290.67332379968934           964.98974403719103          32535.656663346290     
   51.159090448414602          290.52878186488908           972.99614376141074          37453.636759401066     
   57.274999493256068          290.38090112905809           979.09897897948906          42897.346124251701     
   64.002499442581680          290.22936090669185           983.53798081374475          48912.574957055593     
   71.402749386839858          290.07387289682799           986.50367555557273          55549.278384365236     
   79.543024325523845          289.91417639480989           988.14719635090523          62861.814619079887     
   88.497326758076241          289.75003390931056           988.58901268190186          70909.200983672723     
   98.347059433883871          289.58122755897216           987.92615104470508          79755.390521154448     
   109.18176537727226          289.40755709467163           986.23845370836068          89469.575644783676     
   121.09994191499949          289.22883679792096           983.59122681476163          100126.49735581825     
   134.20993610649944          289.04489604476117           980.03820726697893          111806.76572374383     
   148.63092971714940          288.85557584167435           975.62700957954360          124597.23015240212     
   164.49402268886433          288.66072898979655           970.40037413389007          138591.36774755927     
   181.94342495775078          288.46022243424727           964.39555220746888          153889.66405373474     
   201.13776745352587          288.25393809155344           957.64609423747800          170600.01598331242     
   222.25154419887846          288.04177065589801           950.18132927347403          188838.12185047832     
   245.47669861876633          287.82362960358108           942.02891802748002          208727.91011337659     
   271.02436848064298          287.59944029758168           933.21485186979362          230401.96915498533     
   299.12680532870729          287.36914497115157           923.76379354958044          254001.98158294481     
   330.03948586157804          287.13270376223323           913.69943187238482          279679.16216525075     
   364.04343444773588          286.89009582754795           903.04479296371994          307594.69735701062     
   401.44777789250946          286.64132052449065           891.82250537527250          337920.18397776986     
   441.44777789250946          286.39361179613456           880.16349682042824          370842.12170039408     
   481.44777789250946          286.16285337235450           868.54178318887546          405583.79302794911     
   521.44777789250952          285.94621672397915           857.41660808997437          439880.45735154807     
   561.44777789250952          285.74185798036063           846.81648164738681          473753.11661744356     
   601.44777789250952          285.54835340482617           836.71016319882983          507221.52314539673     
   641.44777789250952          285.36454208097479           827.05985357477789          540303.91728838789     
   681.44777789250952          285.18945454156568           817.82972486477865          573017.10628297902     
   721.44777789250952          285.02226852302380           808.98713487388261          605376.59167793428     
   761.44777789250952          284.86227875915921           800.50274616375498          637396.70152448444     
   801.44777789250952          284.70887511414617           792.35032088159085          669090.71435974806     
   841.44777789250952          284.56152603594433           784.50640899776636          700470.97071965877     
   881.44777789250952          284.41976466359330           776.94981818242309          731548.96344695566     
   921.44777789250952          284.28317796386568           769.66134226343854          762335.41713749315     
   961.44777789250952          284.15139798456835           762.62349388631264          792840.35689294571     
   1001.4477778925095          284.02409676904387           755.82069801368505          823073.18481349316     
   1041.4477778925095          283.90097890921106           749.23844966579622          853042.72280012502     
   1081.4477778925095          283.78177784070647           742.86361967511357          882757.26758712961     
   1121.4477778925095          283.66625248052685           736.68427480071716          912224.63857915835     
   1161.4477778925095          283.55418399189477           730.68947881134295          941452.21773161204     
   1201.4477778925095          283.44537304642813           724.86918289519610          970446.98504741990     
   1241.4477778925095          283.33963779189554           719.21419183216824          999215.55272070668     
   1281.4477778925095          283.23681132611944           713.71592598949508          1027764.1897602865     
   1321.4477778925095          283.13674062092679           708.36606497167281          1056098.8323591533     
   1361.4477778925095          283.03928387302096           703.15765618727971          1084225.1386066445     
   1401.4477778925095          282.94431046450217           698.08397116796277          1112148.4974533629     
   1441.4477778925095          282.85169958613437           693.13870270992857          1139874.0455617600     
   1481.4477778925095          282.76133921337885           688.31596779504605          1167406.6842735617     
   1521.4477778925095          282.67312524955304           683.61027550840822          1194751.0952938981     
   1561.4477778925095          282.58696077894911           679.01649373887005          1221911.7550434528     
   1601.4477778925095          282.50275540884786           674.52981869137636          1248892.9477911079     
   1641.4477778925095          282.42042468690818           670.14574743810533          1275698.7776886323     
   1681.4477778925095          282.33988958337324           665.86005324546716          1302333.1798184509     
   1721.4477778925095          282.26107602940664           661.66876336957466          1328799.9303532338     
   1761.4477778925095          282.18391450427282           657.56813903695354          1355102.6559147120     
   1801.4477778925095          282.10833966518408           653.55465736235999          1381244.8422092064     
   1841.4477778925095          282.03429001455999           649.62499498327179          1407229.8420085374     
   1881.4477778925095          281.96170760018936           645.77601322061048          1433060.8825373617     
   1921.4477778925095          281.89053774441788           642.00474459797931          1458741.0723212808     
   1961.4477778925095          281.82072879901500           638.30838057333744          1484273.4075442143     
   2001.4477778925095          281.75223192282152           634.68426035493985          1509660.7779584120     
   2041.4477778925095          281.68500087965162           631.12986068675218          1534905.9723858819     
   2081.4477778925093          281.61899189014775           627.64279372968031          1560011.6841350691     
   2121.4477778925093          281.55416340054933           624.22078052416998          1584980.5153560359     
   2161.4477778925093          281.49047591473658           620.86164945453254          1609814.9813342171     
   2201.4477778925093          281.42789191333003           617.56334311871171          1634517.5150589657     
   2241.4477778925093          281.36637571673367           614.32390139043093          1659090.4711145828     
   2281.4477778925093          281.30589336130907           611.14145536717126          1683536.1293292698     
   2321.4477778925093          281.24641248829033           608.01422206939492          1707856.6982120455     
   2361.4477778925093          281.18790224261534           604.94049936587760          1732054.3181866806     
   2401.4477778925093          281.13033318004670           601.91866119894905          1756131.0646346386     
   2441.4477778925093          281.07367718155575           598.94715313214454          1780088.9507599245     
   2481.4477778925093          281.01790737421430           596.02448821184453          1803929.9302883982     
   2521.4477778925093          280.96299805797258           593.14924312082155          1827655.9000132310     
   2561.4477778925093          280.90892463778641           590.32005460138419          1851268.7021972863     
   2601.4477778925093          280.85566356061980           587.53561612673900          1874770.1268423558     
   2641.4477778925093          280.80319225690448           584.79467479966513          1898161.9138343425     
   2681.4477778925093          280.75148908607576           582.09602846077667          1921445.7549727736     
   2721.4477778925093          280.70053328584703           579.43852298926834          1944623.2958923443     
   2761.4477778925093          280.65030492491462           576.82104978128336          1967696.1378835957     
   2801.4477778925093          280.60078485881797           574.24254339095603          1990665.8396192340     
   2841.4477778925093          280.55195468870113           571.70197932350538          2013533.9187921742     
   2881.4477778925093          280.50379674380628           569.19837612825802          2036301.8538373045     
   2921.4477778925093          280.45629401316705           566.73078406737523          2058971.0851999996     
   2961.4477778925093          280.40943009858267           564.29828531295198          2081543.0166125176     
   3001.4477778925093          280.36318921426522           561.90000032530270          2104019.0166255296     
   3041.4477778925093          280.31755615407820           559.53508115930845          2126400.4198719021     
   3081.4477778925093          280.27251626127293           557.20270992405267          2148688.5282688644     
   3121.4477778925093          280.22805540127865           554.90209750484155          2170884.6121690581     
   3161.4477778925093          280.18415993661722           552.63248228411931          2192989.9114604229     
   3201.4477778925093          280.14081670347650           550.39312889898633          2215005.6366163823     
   3241.4477778925093          280.09801298971576           548.18332705627483          2236932.9696986331     
   3281.4477778925093          280.05573651415727           546.00239041017176          2258773.0653150398     
   3321.4477778925093          280.01397540706637           543.84965549856884          2280527.0515349824     
   3361.4477778925093          279.97271819172596           541.72448073864655          2302196.0307645281     
   3401.4477778925093          279.93195376703585           539.62624547515884          2323781.0805835342     
   3441.4477778925093          279.89167139106274           537.55434907986273          2345283.2545467289     
   3481.4477778925093          279.85186066548056           535.50821009889410          2366703.5829506847     
   3521.4477778925093          279.81251152084343           533.48726544423050          2388043.0735684540     
   3561.4477778925093          279.77361420263804           531.49096962695899          2409302.7123535322     
   3601.4477778925093          279.73515925806453           529.51879403052010          2430483.4641147531     
   3641.4477778925093          279.69713752350475           527.57022622002103          2451586.2731635538     
   3681.4477778925093          279.65954011262954           525.64476928636611          2472612.0639350084     
   3721.4477778925093          279.62235840511119           523.74194122388849          2493561.7415839639     
   3761.4477778925093          279.58558403590354           521.86127433746992          2514436.1925574625     
   3801.4477778925093          279.54920888505330           520.00231467937658          2535236.2851446373     
   3841.4477778925093          279.51322506801455           518.16462151284748          2555962.8700051513     
   3881.4477778925093          279.47762492643579           516.34776680194955          2576616.7806772292     
   3921.4477778925093          279.44240101939079           514.55133472508726          2597198.8340662327     
   3961.4477778925093          279.40754611503166           512.77492121149214          2617709.8309146925     
   4001.4477778925093          279.37305318263520           511.01813349988862          2638150.5562546882     
   4041.4477778925093          279.33891538502633           509.28058971658771          2658521.7798433518     
   4081.4477778925093          279.30512607135063           507.56191847394592          2678824.2565823095     
   4121.4477778925093          279.27167877018434           505.86175848632308          2699058.7269217623     
   4161.4477778925093          279.23856718295821           504.17975820373090          2719225.9172499115     
   4201.4477778925093          279.20578517767979           502.51557546160234          2739326.5402683755     
   4241.4477778925093          279.17332678293809           500.86887714627500          2759361.2953542266     
   4281.4477778925093          279.14118618217759           499.23933887528455          2779330.8689092379     
   4321.4477778925093          279.10935770822402           497.62664469103777          2799235.9346968792     
   4361.4477778925093          279.07783583805059           496.03048676871083          2819077.1541676275     
   4401.4477778925093          279.04661522458326           494.45057224199689          2838855.1770573072     
   4441.4477778925093          279.01569061676412           492.88660324013460          2858570.6411869125     
   4481.4477778925093          278.98505688303129           491.33829263701517          2878224.1728923931     
   4521.4477778925093          278.95470901981355           489.80536233692061          2897816.3873858699     
   4561.4477778925093          278.92464214808257           488.28754137386130          2917347.8890408245     
   4601.4477778925093          278.89485150817853           486.78456535638566          2936819.2716550799     
   4641.4477778925093          278.86533245504950           485.29617623749493          2956231.1187045798     
   4681.4477778925093          278.83608045401780           483.82212213096415          2975584.0035898183     
   4721.4477778925093          278.80709107693235           482.36215712852362          2994878.4898749590     
   4761.4477778925093          278.77835999859127           480.91604111756891          3014115.1315196618     
   4801.4477778925093          278.74988299337303           479.48353960146397          3033294.4731037202     
   4841.4477778925093          278.72165593203658           478.06442352529467          3052417.0500447322     
   4881.4477778925093          278.69367481114784           476.65844241954028          3071483.3877415136     
   4921.4477778925093          278.66593566800270           475.26539220047164          3090494.0034295325     
   4961.4477778925093          278.63843463083452           473.88507023437950          3109449.4062389075     
   5001.4477778925093          278.61116794544614           472.51727313699018          3128350.0971643869     
   5041.4477778925093          278.58413192733582           471.16179517764442          3147196.5689714928     
   5081.4477778925093          278.55732296200330           469.81843502617943          3165989.3063725401     
   5121.4477778925093          278.53073751033889           468.48699671867297          3184728.7862412869     
   5161.4477778925093          278.50437210924031           467.16728899415307          3203415.4778010529     
   5201.4477778925093          278.47822336988349           465.85912485472215          3222049.8427952416     
   5241.4477778925093          278.45228797539966           464.56232134022986          3240632.3356488510     
   5281.4477778925093          278.42656267855085           463.27669938682436          3259163.4036243241     
   5321.4477778925093          278.40104429953811           462.00208371252023          3277643.4869728251     
   5361.4477778925093          278.37572972847977           460.73830357704452          3296073.0191159071     
   5401.4477778925093          278.35061598330310           459.48520346992126          3314452.4272547038     
   5441.4477778925093          278.32570005019170           458.24260452578687          3332782.1314357352     
   5481.4477778925093          278.30097898329967           457.01034585807145          3351062.5452700579     
   5521.4477778925093          278.27644990146246           455.78826997215947          3369294.0760689443     
   5561.4477778925093          278.25210998337127           454.57622228677769          3387477.1249604155     
   5601.4477778925093          278.22795646928881           453.37405211846027          3405612.0870451541     
   5641.4477778925093          278.20398669213796           452.18161834936484          3423699.3517791289     
   5681.4477778925093          278.18019798936888           450.99876828041590          3441739.3025103454     
