 #              _____________________  _______________________             #
 #              ___  __ \__  __ \_  / / /_  /___  ____/_  ___/             #
 #              __  / / /_  /_/ /  / / /_  __/_  __/  _____ \              #
 #              _  /_/ /_  _, _// /_/ / / /_ _  /___  ____/ /              #
 #              /_____/ /_/ |_| \____/  \__/ /_____/  /____/               #
 #                                                                         #
  
 #        time                      T            heat flux [W.L-2]   in    x              directions   cumulative flux
 #-----------------------------------------------------------------------------------------------

   0.0000000000000000          293.14999999999998          -0.0000000000000000          0.0000000000000000     
   1.0000000000000000          293.14999999999998          -0.0000000000000000          0.0000000000000000     
   2.1000000000000001          293.14999999999998          -4.5295373183572548E-011     4.5295373183572548E-011
   3.3100000000000005          293.15000000000015           1.3588611954870958E-010     1.9477010468715310E-010
   4.6410000000000009          293.15000000000060           6.3413522450235581E-010     9.6207372633500366E-010
   6.1051000000000020          293.15000000000299           2.4006547774134598E-009     4.1573452350723195E-009
   7.7156100000000025          293.15000000001226           9.1949607352200316E-009     1.7619687247507975E-008
   9.4871710000000036          293.15000000004528           3.1978533207187513E-008     6.9121434763015564E-008
   11.435888100000005          293.15000000014703           9.8743911033647056E-008     2.4405229653769449E-007
   13.579476910000007          293.15000000042812           2.7381051154046874E-007     7.7763152253635362E-007
   15.937424601000009          293.15000000113241           6.8853484490497692E-007     2.2535671113697487E-006
   18.531167061100010          293.15000000275222           1.5876927649106405E-006     5.9972636004082024E-006
   21.384283767210015          293.15000000620415           3.3892232966316857E-006     1.4788035971641909E-005
   24.522712143931017          293.15000001307516           6.7509916350181812E-006     3.4049402988321165E-005
   27.974983358324121          293.15000002593524           1.2634468092896739E-005     7.3701776175844400E-005
   31.772481694156536          293.15000004870467           2.2349963460697862E-005     1.5085991167394932E-004
   35.949729863572195          293.15000008704243           3.7570142342730269E-005     2.9353246469745445E-004
   40.544702849929415          293.15000014871902           6.0303108913586817E-005     5.4543351601680796E-004
   45.599173134922360          293.15000024392845           9.2822383846191824E-005     9.7194986231934034E-004
   51.159090448414602          293.15000038549613           1.3756164813097225E-004     1.6672511251519949E-003
   57.274999493256068          293.15000058894788           1.9698929242025333E-004     2.7624953026519471E-003
   64.002499442581680          293.15000087241560           2.7348443108923711E-004     4.4351012083739347E-003
   71.402749386839858          293.15000125636084           3.6923129017685789E-004     6.9191046943281754E-003
   79.543024325523845          293.15000176310855           4.8615132523624184E-004     1.0516746011808711E-002
   88.497326758076241          293.15000241618600           6.2587869644439560E-004     1.5611570679131229E-002
   98.347059433883871          293.15000323946992           7.8978000884941015E-004     2.2683499733552749E-002
   109.18176537727226          293.15000425615415           9.7900843682701723E-004     3.2326471123659169E-002
   121.09994191499949          293.15000548755415           1.1945779535210254E-003     4.5269371976514164E-002
   134.20993610649944          293.15000695177878           1.4374516277946962E-003     6.2401174241014726E-002
   148.63092971714940          293.15000866225523           1.7086790163500037E-003     8.4801946220501134E-002
   164.49402268886433          293.15001062596377           2.0097317288423626E-003    0.11378427464125733     
   181.94342495775078          293.15001284075453           2.3435113659319934E-003    0.15095961331930724     
   201.13776745352587          293.15001528981458           2.7172871082424511E-003    0.19837464915108896     
   222.25154419887846          293.15001792799552           3.1506138345264723E-003    0.25884861016291733     
   245.47669861876633          293.15002064692993           3.6949624099292052E-003    0.33686322156863258     
   271.02436848064298          293.15002318925377           4.4786955458229454E-003    0.44088161722003444     
   299.12680532870729          293.15002494984134           5.8025236032328035E-003    0.58912257460117301     
   330.03948586157804          293.15002454428264           8.3274829613240210E-003    0.82314513862511296     
   364.04343444773588          293.15001893187741           1.3418597612332717E-002     1.2379499598142965     
   401.44777789250946          293.15000174614232           2.3728028778358796E-002     2.0447966304444822     
   441.44777789250946          293.14996239911335           4.3193919374555433E-002     3.6604368254562143     
   481.44777789250946          293.14989093173045           7.4807228229082576E-002     6.6527259546195179     
   521.44777789250952          293.14977336511504          0.12280458393714803          11.564909312105438     
   561.44777789250952          293.14959300205879          0.19179848703799568          19.236848793625263     
   601.44777789250952          293.14933067512300          0.28660774818558571          30.701158721048692     
   641.44777789250952          293.14896509979269          0.41208887434430863          47.184713694821042     
   681.44777789250952          293.14847329764621          0.57298055638110279          70.103935950065150     
   721.44777789250952          293.14783105631960          0.77376931746621580          101.05470864871378     
   761.44777789250952          293.14701339747933           1.0185806705953897          141.79793547252939     
   801.44777789250952          293.14599502968116           1.3110971266805154          194.24182053974999     
   841.44777789250952          293.14475076894860           1.6545021861140499          260.42190798431199     
   881.44777789250952          293.14325591546941           2.0514479832461712          342.47982731415880     
   921.44777789250952          293.14148657961590           2.5040434262365125          442.64156436361930     
   961.44777789250952          293.13941995440399           3.0138593395921500          563.19593794730531     
   1001.4477778925095          293.13703453447005           3.5819471293930332          706.47382312302670     
   1041.4477778925095          293.13431028377050           4.2088677424607823          874.82853282145800     
   1081.4477778925095          293.13122875544991           4.8947281550185968          1070.6176590222019     
   1121.4477778925095          293.12777316797690           5.6392231159176394          1296.1865836589075     
   1161.4477778925095          293.12392844142340           6.4416806117664418          1553.8538081295651     
   1201.4477778925095          293.11968119678363           7.3011103779935134          1845.8982232493056     
   1241.4477778925095          293.11501971618100           8.2162578271515976          2174.5485363353696     
   1281.4477778925095          293.10993385610226           9.1856678509085743          2541.9752503717127     
   1321.4477778925095          293.10441487700712           10.207807051827162          2950.2875324447991     
   1361.4477778925095          293.09845507607156           11.281799525623919          3401.5595134697560     
   1401.4477778925095          293.09204884997087           12.404209752129898          3897.7279035549518     
   1441.4477778925095          293.08519267623922           13.573130202181133          4440.6531116421975     
   1481.4477778925095          293.07788395626977           14.786240735971326          5032.1027410810502     
   1521.4477778925095          293.07012134095066           16.041202118555304          5673.7508258232629     
   1561.4477778925095          293.06190462663500           17.335648341829547          6367.1767594964449     
   1601.4477778925095          293.05323466009565           18.667201268257017          7113.8648102267252     
   1641.4477778925095          293.04411324708883           20.033486588233970          7915.2042737560841     
   1681.4477778925095          293.03454306407446           21.432147978175543          8772.4901928831059     
   1721.4477778925095          293.02452757348237           22.860859163066550          9686.9245594057684     
   1761.4477778925095          293.01407094294092           24.317334025933942          10659.617920443126     
   1801.4477778925095          293.00317796877835           25.799334960915292          11691.591318879739     
   1841.4477778925095          292.99185400397931           27.304679664204389          12783.778505447914     
   1881.4477778925095          292.98010489068815           28.831246549013795          13937.028367408466     
   1921.4477778925095          292.96793689726877           30.376978953515671          15152.107525549092     
   1961.4477778925095          292.95535665985756           31.939888296589093          16429.703057412655     
   2001.4477778925095          292.94237112830723           33.518056322384908          17770.425310308052     
   2041.4477778925095          292.92898751637790           35.109636561565232          19174.810772770659     
   2081.4477778925093          292.91521325600206           36.712855120151119          20643.324977576704     
   2121.4477778925093          292.90105595543537           38.326010901834572          22176.365413650085     
   2161.4477778925093          292.88652336109163           39.947475345831208          23774.264427483333     
   2201.4477778925093          292.87162332285038           41.575691767029717          25437.292098164522     
   2241.4477778925093          292.85636376262852           43.209174360522745          27165.659072585433     
   2281.4477778925093          292.84075264600318           44.846506935676395          28959.519350012488     
   2321.4477778925093          292.82479795668149           46.486341428835473          30818.973007165907     
   2361.4477778925093          292.80850767361335           48.127396243127116          32744.068856890990     
   2401.4477778925093          292.79188975055490           49.768454450768559          34734.807034921731     
   2441.4477778925093          292.77495209789424           51.408361895336064          36791.141510735171     
   2481.4477778925093          292.75770256656705           53.046025219253565          38912.982519505313     
   2521.4477778925093          292.74014893388579           54.680409843661145          41100.198913251756     
   2561.4477778925093          292.72229889113407           56.310537919684045          43352.620430039118     
   2601.4477778925093          292.70416003276705           57.935486268784636          45670.039880790500     
   2641.4477778925093          292.68573984708837           59.554384327766790          48052.215253901173     
   2681.4477778925093          292.66704570826431           61.166412107865057          50498.871738215777     
   2721.4477778925093          292.64808486956002           62.770798182198604          53009.703665503723     
   2761.4477778925093          292.62886445768152           64.366817704451492          55584.376373681785     
   2801.4477778925093          292.60939146812069           65.953790469718555          58222.527992470525     
   2841.4477778925093          292.58967276140743           67.531079019163272          60923.771153237052     
   2881.4477778925093          292.56971506017635           69.098086796141530          63687.694625082717     
   2921.4477778925093          292.54952494697017           70.654256352309844          66513.864879175104     
   2961.4477778925093          292.52910886270030           72.199067609809802          69401.827583567501     
   3001.4477778925093          292.50847310569708           73.732036178509858          72351.109030707899     
   3041.4477778925093          292.48762383128798           75.252711729945943          75361.217499905732     
   3081.4477778925093          292.46656705183983           76.760676428799414          78431.644557057705     
   3121.4477778925093          292.44530863721769           78.255543420053058          81561.866293859828     
   3161.4477778925093          292.42385431560797           79.736955373422077          84751.344508796712     
   3201.4477778925093          292.40220967466337           81.204583083820950          87999.527832149557     
   3241.4477778925093          292.38038016292825           82.658124125354718          91305.852797163752     
   3281.4477778925093          292.35837109150810           84.097301559926692          94669.744859560815     
   3321.4477778925093          292.33618763594910           85.521862697026918          98090.619367441890     
   3361.4477778925093          292.31383483830018           86.931577906211345          101567.88248369034     
   3401.4477778925093          292.29131760932648           88.326239477732457          105100.93206279963     
   3441.4477778925093          292.26864073085159           89.705660531248412          108689.15848404958     
   3481.4477778925093          292.24580885820734           91.069673971138130          112331.94544289510     
   3521.4477778925093          292.22282652276925           92.418131487340602          116028.67070238873     
   3561.4477778925093          292.19969813455930           93.750902598536982          119778.70680633021     
   3601.4477778925093          292.17642798490442           95.067873737301340          123581.42175582227     
   3641.4477778925093          292.15302024912819           96.368947376292269          127436.17965087396     
   3681.4477778925093          292.12947898927104           97.654041191271745          131342.34129852484     
   3721.4477778925093          292.10580815682260           98.923087263985039          135299.26478908423     
   3761.4477778925093          292.08201159545831           100.17603131689106          139306.30604175988     
   3801.4477778925093          292.05809304376902           101.41283198677834          143362.81932123101     
   3841.4477778925093          292.03405613797906           102.63346012694012          147468.15772630862     
   3881.4477778925093          292.00990441464234           103.83789814400366          151621.67365206877     
   3921.4477778925093          291.98564131331307           105.02613936251342          155822.71922656932     
   3961.4477778925093          291.96127017918417           106.19818742051015          160070.64672338971     
   4001.4477778925093          291.93679426568934           107.35405569138803          164364.80895104524     
   4041.4477778925093          291.91221673706616           108.49376673264737          168704.55962035112     
   4081.4477778925093          291.88754067087399           109.61735176077816          173089.25369078224     
   4121.4477778925093          291.86276906046743           110.72485014814359          177518.24769670799     
   4161.4477778925093          291.83790481742017           111.81630894691241          181990.90005458449     
   4201.4477778925093          291.81295077389876           112.89178243089671          186506.57135182037     
   4241.4477778925093          291.78790968498544           113.95133166247670          191064.62461831945     
   4281.4477778925093          291.76278423094618           114.99502407631142          195664.42558137191     
   4321.4477778925093          291.73757701944663           116.02293308533714          200305.34290478539     
   4361.4477778925093          291.71229058771348           117.03513770434321          204986.74841295910     
   4401.4477778925093          291.68692740464019           118.03172219104262          209708.01730060080     
   4441.4477778925093          291.66148987283975           119.01277570348620          214468.52832874024     
   4481.4477778925093          291.63598033064011           119.97839197535585          219267.66400775447     
   4521.4477778925093          291.61040105402805           120.92866900552733          224104.81076797558     
   4561.4477778925093          291.58475425853698           121.86370876308359          228979.35911849892     
   4601.4477778925093          291.55904210108292           122.78361690576685          233890.70379472960     
   4641.4477778925093          291.53326668174628           123.68850251216776          238838.24389521632     
   4681.4477778925093          291.50743004550139           124.57847782802008          243821.38300833711     
   4721.4477778925093          291.48153418389654           125.45365802324734          248839.52932926701     
   4761.4477778925093          291.45558103668219           126.31416096109547          253892.09576771082     
   4801.4477778925093          291.42957249339020           127.16010697953521          258978.50004689224     
   4841.4477778925093          291.40351039486376           127.99161868181355          264098.16479416477     
   4881.4477778925093          291.37739653474182           128.80882073908040          269250.51762372797     
   4921.4477778925093          291.35123266089619           129.61183970187764          274434.99121180305     
   4961.4477778925093          291.32502047682271           130.40080381962841          279651.02336458821     
   5001.4477778925093          291.29876164298895           131.17584287277089          284898.05707949906     
   5041.4477778925093          291.27245777814039           131.93708800953107          290175.54059988033     
   5081.4477778925093          291.24611046056111           132.68467159302227          295482.92746360123     
   5121.4477778925093          291.21972122929759           133.41872705562247          300819.67654582614     
   5161.4477778925093          291.19329158533998           134.13938876090407          306185.25209626229     
   5201.4477778925093          291.16682299276658           134.84679187279522          311579.12377117411     
   5241.4477778925093          291.14031687984954           135.54107223158906          317000.76666043769     
   5281.4477778925093          291.11377464012509           136.22236623559806          322449.66130986164     
   5321.4477778925093          291.08719763342816           136.89081073075448          327925.29373909184     
   5361.4477778925093          291.06058718689303           137.54654290401155          333427.15545525227     
   5401.4477778925093          291.03394459591988           138.18970018382353          338954.74346260523     
   5441.4477778925093          291.00727112511140           138.82042014601208          344507.56026844570     
   5481.4477778925093          290.98056800917590           139.43884042353335          350085.11388538702     
   5521.4477778925093          290.95383645380218           140.04509862256512          355686.91783028963     
   5561.4477778925093          290.92707763650429           140.63933224278691          361312.49112000113     
   5601.4477778925093          290.90029270743798           141.22167860197459          366961.35826408013     
   5641.4477778925093          290.87348279019045           141.79227476437273          372633.04925465502     
   5681.4477778925093          290.84664898254368           142.35125747531998          378327.09955366782     
